# SAXS profile: number of points = 501, q_min = 0, q_max = 0.5, delta_q = 0.001
#    q    intensity    error
0.00000    116429301.03264919 17464.39515490
0.00100    116417137.09667191 62865.25552517
0.00200    116380649.83778459 89031.19994508
0.00300    116319868.39149645 104687.88528165
0.00400    116234814.96991184 104611.33744794
0.00500    116125564.83755668 135866.91623772
0.00600    115992166.95585997 121791.78026205
0.00700    115834721.77123564 194602.34066340
0.00800    115653297.54284984 218584.74158462
0.00900    115448064.88327734 242440.94661868
0.01000    115219075.30566525 247144.92720225
0.01100    114966544.02457863 227633.76707969
0.01200    114690564.16505404 290740.59290558
0.01300    114391376.49605739 336310.66173131
0.01400    114069092.33492881 359317.65678392
0.01500    113723989.91992722 272937.58796142
0.01600    113356175.93486495 346869.91386698
0.01700    112966006.35104936 335509.05391312
0.01800    112553627.96852864 481166.78121680
0.01900    112119324.05547003 403629.58481250
0.02000    111663345.22245763 457261.41937049
0.02100    111186052.79406059 403605.38994129
0.02200    110687574.52321401 458246.57934532
0.02300    110168357.57586719 475927.32639119
0.02400    109628635.20022663 411107.40074634
0.02500    109068810.26432857 638052.56918658
0.02600    108489153.86762086 439381.09326040
0.02700    107890061.49786191 498452.10694978
0.02800    107271789.85024840 559958.76869779
0.02900    106634855.28360724 527842.55788933
0.03000    105979534.17314962 640646.31352417
0.03100    105306244.80781421 606563.99800293
0.03200    104615338.99553227 673199.73744257
0.03300    103907369.82723834 582920.37160371
0.03400    103182537.64228228 650050.01713993
0.03500    102441422.88987477 885093.93464045
0.03600    101684350.79556546 564348.17299602
0.03700    100911847.32623562 690237.06763320
0.03800    100124291.95687357 702872.56206589
0.03900    99322205.71436344 774713.24044901
0.04000    98505878.03061278 726973.41355312
0.04100    97675959.71592176 615358.57474237
0.04200    96832832.32864875 749486.15699455
0.04300    95976912.20734200 760137.17996617
0.04400    95108752.44139232 770380.93055327
0.04500    94228856.37890983 650179.13922498
0.04600    93337560.53337225 723832.81558502
0.04700    92435474.37784387 798642.53576777
0.04800    91523018.08088803 874502.47845184
0.04900    90600764.68133987 883357.49676115
0.05000    89669091.94400662 823162.30237746
0.05100    88728576.26296943 1107332.68334588
0.05200    87779581.30867270 837417.24470945
0.05300    86822750.90428016 843917.17813122
0.05400    85858488.52123874 849999.07599900
0.05500    84887317.40246509 784358.84938855
0.05600    83909655.70503804 1004398.62565872
0.05700    82926151.70297635 937894.81954021
0.05800    81937108.39574958 725143.44316108
0.05900    80943056.59102102 801336.29767818
0.06000    79944535.14299262 877791.03687940
0.06100    78942017.67783442 880992.95845463
0.06200    77935962.23580423 957443.34082113
0.06300    76926869.77245829 812347.78277872
0.06400    75915026.26675612 888205.84885952
0.06500    74901145.84559569 1112282.06783719
0.06600    73885554.74516420 816804.84592489
0.06700    72868705.84482522 743260.83440105
0.06800    71851092.88565804 966756.50002951
0.06900    70833176.48784685 1115622.58191583
0.07000    69815295.31714085 892239.51593527
0.07100    68797939.53907605 1040224.89455264
0.07200    67781515.72823542 890649.15839308
0.07300    66766531.77324925 815219.39114896
0.07400    65753313.01632047 887669.76732022
0.07500    64742264.12050774 738061.84556858
0.07600    63733723.09254321 956961.89709748
0.07700    62728267.79946692 880704.92119945
0.07800    61726069.46281882 877744.74892419
0.07900    60727582.21852286 801604.12288273
0.08000    59733227.34532789 1016062.24480859
0.08100    58743351.07220977 939306.22771520
0.08200    57758179.37725022 1078634.05048526
0.08300    56778156.72228177 786945.28910374
0.08400    55803590.87100819 711495.81700201
0.08500    54834820.59875159 919579.98461089
0.08600    53872137.97737020 703031.43361306
0.08700    52915865.09655967 838187.34248886
0.08800    51966202.50694073 832498.60325846
0.08900    51023568.28043215 826581.84496730
0.09000    50088189.39835789 957185.34436688
0.09100    49160274.26591901 881935.36176494
0.09200    48240103.61079039 1076719.16318435
0.09300    47328041.78937957 667325.42058931
0.09400    46424065.44506823 793851.55641969
0.09500    45528598.36049039 852295.40136855
0.09600    44641821.71638094 714492.39015738
0.09700    43763988.42126238 643330.66003732
0.09800    42895235.68967234 636994.27994163
0.09900    42035807.74342302 693590.86038084
0.10000    41185715.97174314 686359.98894667
0.10100    40345258.59567036 679010.73410022
0.10200    39514630.86916030 732601.29077309
0.10300    38693865.66736052 1086523.79905037
0.10400    37883179.94113907 656326.12335716
0.10500    37082811.92243604 707540.08476939
0.10600    36292543.12202878 640744.87896874
0.10700    35512845.11438785 920492.98868118
0.10800    34743607.24550715 568058.00519781
0.10900    33984991.09192439 841128.56911339
0.11000    33237083.30878674 664076.95576736
0.11100    32499958.41503756 545999.32707466
0.11200    31773646.19495935 700132.32686614
0.11300    31058227.55758531 743534.00273477
0.11400    30353807.91023827 785404.81665775
0.11500    29660366.27065585 567699.43715218
0.11600    28977940.40567723 610275.45368234
0.11700    28306603.15156728 551129.58931642
0.11800    27646221.39880793 542833.58273214
0.11900    26996927.92610743 680322.61578222
0.12000    26358682.10735527 574092.12334075
0.12100    25731624.91466242 612155.38555731
0.12200    25115544.33701767 602396.35930304
0.12300    24510516.15188507 547074.74628518
0.12400    23916470.72579177 717494.15558026
0.12500    23333360.26106365 705600.84754282
0.12600    22761313.16806843 433603.03628458
0.12700    22200075.78897673 554113.91780624
0.12800    21649674.68024586 628381.83720930
0.12900    21110095.23576324 535140.93944891
0.13000    20581223.42015724 485305.27112211
0.13100    20062939.12000491 397246.21330134
0.13200    19555263.96344795 468153.04135383
0.13300    19058128.05270601 383068.39191838
0.13400    18571376.13912397 413677.42300206
0.13500    18094952.74847643 406050.75882037
0.13600    17628754.22764092 615860.55798092
0.13700    17172694.20742594 391022.26554107
0.13800    16726656.41176351 383625.88289396
0.13900    16290565.80090651 478942.65713272
0.14000    15864311.27243961 369083.21915949
0.14100    15447772.08646845 460652.58534423
0.14200    15040807.05685575 483937.98987941
0.14300    14643350.60430339 569333.49834941
0.14400    14255168.96526054 341054.93358138
0.14500    13876317.94605739 334280.51508924
0.14600    13506560.42697502 387165.57290352
0.14700    13145808.02261235 291836.95186985
0.14800    12793843.17242989 314536.64923361
0.14900    12450609.43673315 420208.08831550
0.15000    12115966.93250673 301869.33036647
0.15100    11789771.45561055 349448.84243303
0.15200    11471952.80661246 315937.59520226
0.15300    11162278.57209281 438342.70021105
0.15400    10860578.58614679 328261.00325726
0.15500    10566829.64378607 321442.97293382
0.15600    10280780.76882166 266323.63838545
0.15700    10002438.86094167 284469.37463123
0.15800    9731456.13885201 301723.81182609
0.15900    9467872.24427954 363566.31134088
0.16000    9211410.29362041 311437.79672793
0.16100    8962098.76684605 261334.81237735
0.16200    8719610.50863183 277152.83310015
0.16300    8483902.18302663 313056.00533238
0.16400    8254820.31529643 265598.85618347
0.16500    8032202.36002416 240002.21784834
0.16600    7815936.02011716 313262.73047638
0.16700    7605818.06327797 249166.61151732
0.16800    7401743.50757897 262687.88948715
0.16900    7203661.49052875 220432.05201855
0.17000    7011306.17345774 233792.01539353
0.17100    6824602.50683413 211289.70358896
0.17200    6643394.76432357 224114.93295781
0.17300    6467564.15555675 168803.43243168
0.17400    6297007.99280072 198355.76114078
0.17500    6131536.15951768 161872.56225612
0.17600    5970983.46265742 158529.61842077
0.17700    5815346.85674564 186323.72209031
0.17800    5664395.97272176 167297.94295617
0.17900    5518063.30431563 253279.11763137
0.18000    5376207.25825881 248138.85772578
0.18100    5238756.27309738 185923.46891460
0.18200    5105435.94044787 266274.02405228
0.18300    4976266.97876923 178548.46763275
0.18400    4851090.10614154 201926.63520730
0.18500    4729832.50448206 158354.79973107
0.18600    4612315.42122639 155250.54441305
0.18700    4498459.27942432 126856.55767308
0.18800    4388145.08358167 174165.48659600
0.18900    4281336.40164326 122018.09321188
0.19000    4177760.76440847 143631.42186677
0.19100    4077567.41765277 117433.94717716
0.19200    3980396.05260060 126755.71828444
0.19300    3886366.25051198 113093.26323385
0.19400    3795214.82876617 133212.04678448
0.19500    3706949.74220980 163476.49135655
0.19600    3621440.30069171 171221.70550802
0.19700    3538608.69751699 178664.36158088
0.19800    3458351.75576662 103231.80478824
0.19900    3380642.22813564 141986.98029200
0.20000    3305292.14160572 179378.21300256
0.20100    3232330.33386960 107733.57511961
0.20200    3161603.55700215 105897.91614689
0.20300    3093093.78282569 104113.54165080
0.20400    3026678.18890796 139605.53806194
0.20500    2962311.30558600 100688.96603612
0.20600    2899882.26087150 108049.61814736
0.20700    2839391.50294269 106306.82289520
0.20800    2780692.86477586 122044.61560408
0.20900    2723867.82540181 154443.31300101
0.21000    2668654.44426638 92909.20886917
0.21100    2615132.89735149 124741.84510064
0.21200    2563183.31217992 90083.08176519
0.21300    2512766.48373405 112923.73111753
0.21400    2463841.77047255 79458.90085428
0.21500    2416384.49541609 101778.11975875
0.21600    2370242.32384485 100296.80867538
0.21700    2325463.62333415 76042.66407829
0.21800    2281955.96554849 82458.48271378
0.21900    2239648.85293435 73908.41564134
0.22000    2198542.47124341 87458.02364130
0.22100    2158634.02986281 79070.76825262
0.22200    2119807.54458545 70907.56571921
0.22300    2082030.12824366 90943.08030196
0.22400    2045260.96641605 69027.56088060
0.22500    2009557.99918276 81748.82327243
0.22600    1974740.37905973 87411.88701263
0.22700    1940902.25459058 119481.94844279
0.22800    1907922.75879297 85198.29482293
0.22900    1875787.63071332 77657.61158403
0.23000    1844513.18780789 76694.86197609
0.23100    1814043.57151398 82067.33505648
0.23200    1784311.00119355 118487.17763794
0.23300    1755349.27431181 92419.14366343
0.23400    1727117.63989887 60880.89968582
0.23500    1699527.01407654 78212.23688694
0.23600    1672659.65235154 77301.96948958
0.23700    1646436.52113453 76411.12255994
0.23800    1620849.44971245 69728.94662472
0.23900    1595839.39536968 68940.26514081
0.24000    1571431.59221906 73849.43116944
0.24100    1547635.81433757 61797.10098957
0.24200    1524373.75588988 100014.16685480
0.24300    1501643.13369947 60456.15542249
0.24400    1479429.78455472 76116.66601593
0.24500    1457719.09011791 53789.83696985
0.24600    1436511.57326907 53222.75630733
0.24700    1415780.55285837 73733.85468091
0.24800    1395511.24558565 67759.05173487
0.24900    1375680.95337989 77382.05728837
0.25000    1356300.24325130 66384.11854645
0.25100    1337321.17079423 80881.18823604
0.25200    1318813.57498402 65063.67079998
0.25300    1300674.56518038 69377.98458903
0.25400    1282947.49714564 63794.56731376
0.25500    1265579.20344466 53458.06808271
0.25600    1248612.31534768 62574.20914420
0.25700    1231990.72548815 52445.84766542
0.25800    1215747.73637797 66124.52251022
0.25900    1199842.61261406 51473.25051659
0.26000    1184298.17488049 46365.27574037
0.26100    1169052.81904300 55132.53355473
0.26200    1154178.57042743 68298.52013671
0.26300    1139578.10793988 81229.13137752
0.26400    1125317.11842294 49204.49333131
0.26500    1111366.31216954 66515.27693078
0.26600    1097703.25883609 57151.92287570
0.26700    1084351.12060608 56668.19224443
0.26800    1071301.98747818 47549.74096431
0.26900    1058498.54286014 51443.03161737
0.27000    1046003.89395713 63780.09045225
0.27100    1033764.50747033 42177.59390075
0.27200    1021839.51411630 41844.33008328
0.27300    1010131.38166756 49819.68210152
0.27400    998643.38276689 49432.84978636
0.27500    987487.43002387 69499.36861416
0.27600    976513.97599548 52746.40490967
0.27700    965831.12846332 60412.73994451
0.27800    955360.40310913 55974.56866728
0.27900    945138.47263454 43665.39950230
0.28000    935138.65604548 43357.70583960
0.28100    925363.26889727 43057.15493964
0.28200    915823.64364497 66090.41637167
0.28300    906497.65374015 38616.80187707
0.28400    897368.88247863 49871.27800420
0.28500    888475.71316987 53361.85385867
0.28600    879756.44226716 53022.92328512
0.28700    871257.87150891 48929.84437991
0.28800    862940.59031421 67335.25744940
0.28900    854840.54666385 48341.23520201
0.29000    846900.26443539 51754.07760939
0.29100    839179.90912326 51458.51446322
0.29200    831620.52890734 43859.66877069
0.29300    824252.97244268 43619.46936643
0.29400    817024.34760573 39768.66200222
0.29500    810009.81970949 50350.21277657
0.29600    803133.91711224 39357.57947118
0.29700    796410.56590576 42719.46477744
0.29800    789866.87871461 38968.08430608
0.29900    783483.36814288 42308.10388254
0.30000    777226.57838096 42110.13801016
0.30100    771139.13544668 38425.86493840
0.30200    765171.26206549 38254.73905797
0.30300    759362.49585838 34626.93145042
0.30400    753696.13136198 37929.75960645
0.30500    748137.14493582 34339.49657826
0.30600    742708.86891921 37621.91953623
0.30700    737433.68146245 37476.38146618
0.30800    732251.12425857 47515.77770271
0.30900    727206.95982278 54104.20037234
0.31000    722270.48782953 33693.91985248
0.31100    717443.35253498 33576.35048832
0.31200    712727.30979908 36808.80365731
0.31300    708113.25359193 36687.34940560
0.31400    703616.69055502 39895.06824337
0.31500    699193.38106791 53026.82853086
0.31600    694886.97264695 42954.44024796
0.31700    690672.10313946 36239.56696760
0.31800    686524.47181431 32850.19753172
0.31900    682501.75795999 39312.10311988
0.32000    678540.85970202 49007.61591246
0.32100    674658.71777348 48879.02641711
0.32200    670879.89527652 45505.78545132
0.32300    667137.26993837 58361.17113766
0.32400    663485.25467816 42048.38000627
0.32500    659895.23053447 51630.20528180
0.32600    656381.74010563 35415.07846438
0.32700    652929.08383131 35336.52369023
0.32800    649562.33349203 44878.26374609
0.32900    646224.91886179 41584.57549793
0.33000    642972.21529529 35115.92920123
0.33100    639735.01866214 31858.80543803
0.33200    636607.32000773 34978.39085422
0.33300    633498.08652587 41259.73232929
0.33400    630456.31925654 50688.69046862
0.33500    627443.45743842 37947.78210293
0.33600    624485.76736710 50508.41125655
0.33700    621559.66717664 37815.69194186
0.33800    618702.88193045 44045.46025050
0.33900    615859.96289772 37690.63151428
0.34000    613067.74472281 31358.41662765
0.34100    610306.03691475 31308.70117646
0.34200    607609.12222438 31261.49081896
0.34300    604914.50420708 34334.94888488
0.34400    602288.25788952 34285.26070410
0.34500    599675.75836217 37347.80799959
0.34600    597115.70967626 40403.83640879
0.34700    594554.42002106 43450.03907297
0.34800    592041.29434391 52688.71748554
0.34900    589559.56555742 46427.81798655
0.35000    587100.77538843 34001.94301703
0.35100    584688.31522244 30871.54450590
0.35200    582270.56317285 36997.47333631
0.35300    579889.77227710 40029.79287623
0.35400    577540.48494162 39980.24196369
0.35500    575221.11991789 39931.85203603
0.35600    572909.86935671 33747.25745288
0.35700    570628.70839204 30642.76309204
0.35800    568376.81991607 33667.80252241
0.35900    566148.63844705 30572.02792420
0.36000    563952.13051871 54968.41676529
0.36100    561761.54107828 36604.38375047
0.36200    559625.75650539 36565.94866207
0.36300    557473.36459444 30438.04714861
0.36400    555346.35596592 36486.25731522
0.36500    553242.77608693 36447.63581505
0.36600    551180.87073614 39445.26088268
0.36700    549117.54440069 33342.41887539
0.36800    547112.48119747 36339.21272248
0.36900    545119.17024371 36304.93845796
0.37000    543109.69580812 33246.46160376
0.37100    541131.02424177 45292.66887454
0.37200    539205.16802051 45252.79586975
0.37300    537279.81380628 33155.53888058
0.37400    535391.79539312 36138.94790097
0.37500    533524.15400241 39117.99282452
0.37600    531676.47568374 45099.45918630
0.37700    529836.82222115 33045.92416738
0.37800    528038.00555593 30018.96203792
0.37900    526273.56664482 50995.91102368
0.38000    524514.36455671 38968.79656080
0.38100    522770.89693079 41936.68333846
0.38200    521068.14007069 44903.04909780
0.38300    519368.96283166 32907.21904395
0.38400    517723.80839853 38868.11675686
0.38500    516069.40628820 35856.50404758
0.38600    514478.09347813 35838.54568953
0.38700    512871.87778538 32834.05917133
0.38800    511305.52802240 35801.61476824
0.38900    509758.53866442 32802.96351712
0.39000    508260.42809948 35771.37062435
0.39100    506766.52931451 32777.66066895
0.39200    505314.02111893 38724.74184310
0.39300    503868.05104234 35734.32387290
0.39400    502479.89644007 29771.93527459
0.39500    501086.66453671 38693.91406875
0.39600    499722.29494061 32734.31048096
0.39700    498387.38439782 41655.21956152
0.39800    497090.56030305 41651.22002116
0.39900    495812.09199093 38673.34500759
0.40000    494553.15660444 29747.37377916
0.40100    493319.92516822 32721.91218675
0.40200    492130.50468552 44623.93562662
0.40300    490943.32410217 50576.98364534
0.40400    489799.87065840 44633.01532847
0.40500    488674.76327298 38688.38284140
0.40600    487595.46754440 41674.78658560
0.40700    486524.32644821 38707.87724624
0.40800    485479.50115077 32762.58568749
0.40900    484458.19426061 38732.43446634
0.41000    483484.28298253 29806.80745818
0.41100    482513.29438276 35783.18760691
0.41200    481564.67606180 32816.22640514
0.41300    480660.95504319 41788.66541152
0.41400    479770.17155960 35838.83351365
0.41500    478915.87263057 35861.22224180
0.41600    478054.07495441 29902.28380527
0.41700    477249.68889769 38900.62398531
0.41800    476481.72450450 38930.94114535
0.41900    475681.83839151 32964.75296255
0.42000    474945.96248704 32992.12284748
0.42100    474239.78993106 42027.13217514
0.42200    473548.43876297 36055.97983593
0.42300    472865.85947231 33081.69709627
0.42400    472212.08460070 30103.52181977
0.42500    471582.26011851 36160.92941941
0.42600    470957.92085126 33181.34188591
0.42700    470381.80794402 51337.47295171
0.42800    469801.82750679 33254.92393591
0.42900    469271.67229444 33294.82672703
0.43000    468742.14716688 36365.01750044
0.43100    468211.49169372 30340.10609949
0.43200    467728.16693211 39492.62964638
0.43300    467245.59449373 39542.99653587
0.43400    466783.03119374 39594.87249734
0.43500    466336.00861821 39647.88933157
0.43600    465928.88424116 42758.29573307
0.43700    465509.53026178 33642.37534630
0.43800    465092.29161447 36751.59462501
0.43900    464713.78341771 39872.44450677
0.44000    464340.23108191 39930.94006421
0.44100    463985.24467421 36914.66781567
0.44200    463641.65559461 30808.98947431
0.44300    463306.06598835 43198.65963996
0.44400    462985.40646872 33994.70508100
0.44500    462647.15153921 34046.20549525
0.44600    462329.64749976 34099.12476734
0.44700    462039.54005968 43468.68198886
0.44800    461733.14123209 34207.50138933
0.44900    461459.02877390 40493.03169395
0.45000    461188.82546089 31199.42552104
0.45100    460891.04705228 59371.98749505
0.45200    460623.71117266 37559.25918905
0.45300    460347.49365184 47024.49870516
0.45400    460081.23496710 31400.54577467
0.45500    459821.15086850 34596.94503101
0.45600    459552.64425577 40953.03583376
